  ******  INPUT PARAMETERS   ******

 TUBE OD                 =    3.1750000000000000E-002
 TUBE ID                 =    2.1430000000000001E-002
 TUBE CONDUCTIVITY       =    31.000000000000000
 NUMBER OF TUBES         =          1111
 FLOW PER TUBE           =    18.209415301530154
 MOLECULAR WEIGHT        =    12.941300000000000
 VISCOSITY (Kg/m hr)     =   0.16308000000000000
 GAS DESNITY             =    4.3155999999999999
 Temperature dependent input summary
 Position     Temperature       Cp     H(tube)    H(shell)
  Inlet         475.00      8.7420      767.71    49010.79
  Outlet        350.00      7.7483      722.35    15757.17
 FLOW SPEED AND REYNOLDS NUMBER AT INLET:   42.052795536027567        85853.899377913083
 FOULING FACTOR INSIDE   =    0.0000000000000000
 FOULING FACTOR, OUTSIDE =    0.0000000000000000
 NO LINER
 NO GAP BETWEEN LINER AND TUBE
 INCREASED HEAT TRANSFER IN INLET APPLIED

  *******  OUTPUT  ********

   X   T GAS     TTT     TTS   TMEAN     TLI     TLO   U ALL   FLUX
0.000  475.00  351.59  329.45  340.52  351.59  351.59  744.09 0.110E+06
0.300  456.69  346.80  329.18  337.99  346.80  346.80  675.58 0.964E+05
0.600  441.09  344.21  329.08  336.65  344.21  344.21  659.82 0.769E+05
0.900  427.42  342.13  329.00  335.56  342.13  342.13  650.77 0.661E+05
1.200  415.38  340.35  328.92  334.63  340.35  340.35  644.12 0.574E+05
1.500  404.78  338.81  328.84  333.82  338.81  338.81  638.68 0.500E+05
1.800  395.43  337.47  328.76  333.11  337.47  337.47  634.02 0.436E+05
2.100  387.20  336.28  328.68  332.48  336.28  336.28  629.90 0.380E+05
2.400  379.95  335.24  328.60  331.92  335.24  335.24  626.20 0.332E+05
2.700  373.57  334.33  328.51  331.42  334.33  334.33  622.83 0.290E+05
3.000  367.96  333.52  328.43  330.98  333.52  333.52  619.75 0.254E+05
3.300  363.02  332.80  328.35  330.58  332.80  332.80  616.91 0.222E+05
3.600  358.68  332.17  328.27  330.22  332.17  332.17  614.29 0.194E+05
3.900  354.87  331.60  328.20  329.90  331.60  331.60  611.87 0.170E+05
4.200  351.52  331.10  328.12  329.61  331.10  331.10  609.63 0.149E+05
4.500  348.58  330.66  328.05  329.35  330.66  330.66  607.56 0.130E+05
4.800  345.99  330.27  327.98  329.12  330.27  330.27  605.65 0.114E+05
5.100  343.72  329.92  327.91  328.91  329.92  329.92  603.89 0.100E+05
5.400  341.72  329.61  327.85  328.73  329.61  329.61  602.27 0.877E+04
5.700  339.97  329.33  327.79  328.56  329.33  329.33  600.78 0.769E+04
6.000  338.42  329.09  327.73  328.41  329.09  329.09  599.42 0.674E+04
  TRANSFERRED HEAT:    20473.966020549273       KCAL
  AVERAGE WALL TEMPERATURE    340.15610987804746
  FOULING FACTOR INSIDE   =    0.0000000000000000
  FOULING FACTOR, OUTSIDE =    0.0000000000000000
