  ******  INPUT PARAMETERS   ******

 TUBE OD                 =    3.8100000000000002E-002
 TUBE ID                 =    2.3680000000000000E-002
 TUBE CONDUCTIVITY       =    31.000000000000000
 NUMBER OF TUBES         =          1417
 FLOW PER TUBE           =    15.169799929428372
 MOLECULAR WEIGHT        =    13.198900000000000
 VISCOSITY (Kg/m hr)     =   0.16380000000000000
 GAS DESNITY             =    3.8203000000000000
 Temperature dependent input summary
 Position     Temperature       Cp     H(tube)    H(shell)
  Inlet        1050.00      8.6899      642.17   110655.00
  Outlet        474.00      7.7099      514.86    37410.20
 FLOW SPEED AND REYNOLDS NUMBER AT INLET:   33.056983357507420        65725.059660875500
 FOULING FACTOR INSIDE   =    0.0000000000000000
 FOULING FACTOR, OUTSIDE =    1.0000000000000000E-004
 NO LINER
 NO GAP BETWEEN LINER AND TUBE
 INCREASED HEAT TRANSFER IN INLET APPLIED

  *******  OUTPUT  ********

   X   T GAS     TTT     TTS   TMEAN     TLI     TLO   U ALL   FLUX
0.000 1050.00  493.55  370.57  432.06  493.55  493.55  580.16 0.421E+06
0.226  972.95  461.26  362.01  411.64  461.26  461.26  523.87 0.376E+06
0.451  906.92  443.09  357.24  400.16  443.09  443.09  504.54 0.305E+06
0.677  848.62  428.78  353.48  391.13  428.78  428.78  491.74 0.264E+06
0.902  796.74  416.77  350.32  383.55  416.77  416.77  481.68 0.232E+06
1.128  750.40  406.49  347.61  377.05  406.49  406.49  473.23 0.205E+06
1.353  708.90  397.56  345.25  371.41  397.56  397.56  465.92 0.182E+06
1.578  671.67  389.77  343.18  366.48  389.77  389.77  459.48 0.162E+06
1.804  638.24  382.93  341.35  362.14  382.93  382.93  453.75 0.144E+06
2.029  608.17  376.91  339.74  358.32  376.91  376.91  448.62 0.129E+06
2.255  581.11  371.58  338.30  354.94  371.58  371.58  444.01 0.115E+06
2.481  556.73  366.85  337.02  351.94  366.85  366.85  439.85 0.103E+06
2.706  534.76  362.65  335.88  349.26  362.65  362.65  436.09 0.924E+05
2.932  514.93  358.91  334.85  346.88  358.91  358.91  432.68 0.830E+05
3.157  497.04  355.56  333.93  344.74  355.56  355.56  429.58 0.746E+05
3.383  480.87  352.57  333.09  342.83  352.57  352.57  426.77 0.671E+05
3.608  466.26  349.89  332.34  341.12  349.89  349.89  424.20 0.604E+05
3.834  453.05  347.49  331.66  339.57  347.49  347.49  421.87 0.545E+05
4.059  441.11  345.32  331.04  338.18  345.32  345.32  419.74 0.491E+05
4.285  430.30  343.38  330.48  336.93  343.38  343.38  417.80 0.443E+05
4.510  420.51  341.63  329.97  335.80  341.63  341.63  416.02 0.400E+05
  TRANSFERRED HEAT:    78101.742468734185       KCAL
  AVERAGE WALL TEMPERATURE    368.32918395859429
  FOULING FACTOR INSIDE   =    0.0000000000000000
  FOULING FACTOR, OUTSIDE =    1.0000000000000000E-004
