  ******  INPUT PARAMETERS   ******

 TUBE OD                 =    3.1750000000000000E-002
 TUBE ID                 =    2.1430000000000001E-002
 TUBE CONDUCTIVITY       =    31.000000000000000
 NUMBER OF TUBES         =          1111
 FLOW PER TUBE           =    18.209415301530154
 MOLECULAR WEIGHT        =    12.941300000000000
 VISCOSITY (Kg/m hr)     =   0.16308000000000000
 GAS DESNITY             =    4.3155999999999999
 Temperature dependent input summary
 Position     Temperature       Cp     H(tube)    H(shell)
  Inlet         475.00      8.7420      767.71    49010.79
  Outlet        350.00      7.7483      722.35    15757.17
 FLOW SPEED AND REYNOLDS NUMBER AT INLET:   42.052795536027567        85853.899377913083
 FOULING FACTOR INSIDE   =    5.0000000000000001E-004
 FOULING FACTOR, OUTSIDE =    0.0000000000000000
 NO LINER
 NO GAP BETWEEN LINER AND TUBE
 INCREASED HEAT TRANSFER IN INLET APPLIED

  *******  OUTPUT  ********

   X   T GAS     TTT     TTS   TMEAN     TLI     TLO   U ALL   FLUX
0.000  475.00  342.92  328.65  335.79  342.92  342.92  479.68 0.709E+05
0.300  462.68  340.84  328.54  334.69  340.84  340.84  451.13 0.650E+05
0.600  451.58  339.63  328.50  334.06  339.63  339.63  444.79 0.561E+05
0.900  441.39  338.60  328.46  333.53  338.60  338.60  441.29 0.508E+05
1.200  432.01  337.68  328.43  333.06  337.68  337.68  438.76 0.463E+05
1.500  423.38  336.85  328.39  332.62  336.85  336.85  436.70 0.422E+05
1.800  415.43  336.08  328.36  332.22  336.08  336.08  434.93 0.385E+05
2.100  408.11  335.38  328.33  331.85  335.38  335.38  433.34 0.352E+05
2.400  401.38  334.74  328.29  331.52  334.74  334.74  431.90 0.321E+05
2.700  395.19  334.15  328.26  331.20  334.15  334.15  430.56 0.294E+05
3.000  389.50  333.60  328.22  330.91  333.60  333.60  429.32 0.268E+05
3.300  384.27  333.10  328.19  330.64  333.10  333.10  428.16 0.245E+05
3.600  379.47  332.64  328.15  330.40  332.64  332.64  427.06 0.224E+05
3.900  375.07  332.22  328.11  330.16  332.22  332.22  426.02 0.204E+05
4.200  371.03  331.83  328.08  329.95  331.83  331.83  425.04 0.187E+05
4.500  367.33  331.46  328.04  329.75  331.46  331.46  424.11 0.171E+05
4.800  363.93  331.13  328.00  329.57  331.13  331.13  423.22 0.156E+05
5.100  360.82  330.82  327.96  329.39  330.82  330.82  422.37 0.142E+05
5.400  357.97  330.54  327.93  329.23  330.54  330.54  421.57 0.130E+05
5.700  355.35  330.28  327.89  329.08  330.28  330.28  420.81 0.119E+05
6.000  352.96  330.04  327.86  328.95  330.04  330.04  420.08 0.108E+05
  TRANSFERRED HEAT:    18383.731546582301       KCAL
  AVERAGE WALL TEMPERATURE    339.76103276748836
  FOULING FACTOR INSIDE   =    5.0000000000000001E-004
  FOULING FACTOR, OUTSIDE =    0.0000000000000000
