  ******  INPUT PARAMETERS   ******

 TUBE OD                 =    3.1750000000000000E-002
 TUBE ID                 =    2.1430000000000001E-002
 TUBE CONDUCTIVITY       =    31.000000000000000
 NUMBER OF TUBES         =          1111
 FLOW PER TUBE           =    18.209415301530154
 MOLECULAR WEIGHT        =    12.941300000000000
 VISCOSITY (Kg/m hr)     =   0.16308000000000000
 GAS DESNITY             =    4.3155999999999999
 Temperature dependent input summary
 Position     Temperature       Cp     H(tube)    H(shell)
  Inlet         475.00      8.7420      767.71    49010.79
  Outlet        350.00      7.7483      722.35    15757.17
 FLOW SPEED AND REYNOLDS NUMBER AT INLET:   42.052795536027567        85853.899377913083
 FOULING FACTOR INSIDE   =    0.0000000000000000
 FOULING FACTOR, OUTSIDE =    1.0000000000000000E-004
 NO LINER
 NO GAP BETWEEN LINER AND TUBE
 INCREASED HEAT TRANSFER IN INLET APPLIED

  *******  OUTPUT  ********

   X   T GAS     TTT     TTS   TMEAN     TLI     TLO   U ALL   FLUX
0.000  475.00  360.13  339.53  349.83  360.13  360.13  692.56 0.102E+06
0.300  457.82  353.98  337.33  345.66  353.98  353.98  633.15 0.905E+05
0.600  443.02  350.59  336.15  343.37  350.59  350.59  619.55 0.733E+05
0.900  429.93  347.84  335.19  341.51  347.84  347.84  611.79 0.636E+05
1.200  418.31  345.47  334.35  339.91  345.47  345.47  606.08 0.557E+05
1.500  407.99  343.40  333.62  338.51  343.40  343.40  601.42 0.490E+05
1.800  398.82  341.58  332.97  337.28  341.58  341.58  597.41 0.431E+05
2.100  390.67  339.98  332.39  336.18  339.98  339.98  593.86 0.379E+05
2.400  383.44  338.56  331.87  335.21  338.56  338.56  590.66 0.334E+05
2.700  377.02  337.30  331.41  334.35  337.30  337.30  587.74 0.294E+05
3.000  371.32  336.19  330.99  333.59  336.19  336.19  585.05 0.259E+05
3.300  366.28  335.19  330.61  332.90  335.19  335.19  582.57 0.229E+05
3.600  361.80  334.32  330.27  332.29  334.32  334.32  580.27 0.202E+05
3.900  357.84  333.53  329.97  331.75  333.53  333.53  578.14 0.178E+05
4.200  354.33  332.84  329.69  331.26  332.84  332.84  576.15 0.157E+05
4.500  351.22  332.22  329.44  330.83  332.22  332.22  574.30 0.138E+05
4.800  348.47  331.67  329.21  330.44  331.67  331.67  572.59 0.122E+05
5.100  346.04  331.17  329.01  330.09  331.17  331.17  570.99 0.108E+05
5.400  343.88  330.74  328.83  329.78  330.74  330.74  569.52 0.952E+04
5.700  341.97  330.35  328.66  329.50  330.35  330.35  568.15 0.841E+04
6.000  340.28  330.00  328.51  329.25  330.00  330.00  566.89 0.743E+04
  TRANSFERRED HEAT:    20203.667032112837       KCAL
  AVERAGE WALL TEMPERATURE    343.20312228539927
  FOULING FACTOR INSIDE   =    0.0000000000000000
  FOULING FACTOR, OUTSIDE =    1.0000000000000000E-004
