  ******  INPUT PARAMETERS   ******

 TUBE OD                 =    3.8100000000000002E-002
 TUBE ID                 =    2.3680000000000000E-002
 TUBE CONDUCTIVITY       =    31.000000000000000
 NUMBER OF TUBES         =          1417
 FLOW PER TUBE           =    15.169799929428372
 MOLECULAR WEIGHT        =    13.198900000000000
 VISCOSITY (Kg/m hr)     =   0.16380000000000000
 GAS DESNITY             =    3.8203000000000000
 Temperature dependent input summary
 Position     Temperature       Cp     H(tube)    H(shell)
  Inlet        1050.00      8.6899      642.17   110655.00
  Outlet        474.00      7.7099      514.86    37410.20
 FLOW SPEED AND REYNOLDS NUMBER AT INLET:   33.056983357507420        65725.059660875500
 FOULING FACTOR INSIDE   =    0.0000000000000000
 FOULING FACTOR, OUTSIDE =    0.0000000000000000
 NO LINER
 NO GAP BETWEEN LINER AND TUBE
 INCREASED HEAT TRANSFER IN INLET APPLIED

  *******  OUTPUT  ********

   X   T GAS     TTT     TTS   TMEAN     TLI     TLO   U ALL   FLUX
0.000 1050.00  459.28  328.72  394.00  459.28  459.28  615.89 0.447E+06
0.226  968.78  432.16  328.23  380.20  432.16  432.16  552.14 0.397E+06
0.451  899.86  417.14  328.02  372.58  417.14  417.14  530.18 0.318E+06
0.677  839.47  405.43  327.85  366.64  405.43  405.43  515.65 0.273E+06
0.902  786.09  395.71  327.70  361.70  395.71  395.71  504.28 0.238E+06
1.128  738.71  387.44  327.57  357.50  387.44  387.44  494.78 0.209E+06
1.353  696.53  380.32  327.44  353.88  380.32  380.32  486.60 0.184E+06
1.578  658.91  374.15  327.32  350.73  374.15  374.15  479.43 0.163E+06
1.804  625.30  368.76  327.20  347.98  368.76  368.76  473.10 0.144E+06
2.029  595.24  364.04  327.08  345.56  364.04  364.04  467.46 0.128E+06
2.255  568.32  359.89  326.97  343.43  359.89  359.89  462.41 0.114E+06
2.481  544.19  356.23  326.86  341.54  356.23  356.23  457.88 0.102E+06
2.706  522.54  352.99  326.75  339.87  352.99  352.99  453.81 0.906E+05
2.932  503.11  350.11  326.64  338.38  350.11  350.11  450.13 0.810E+05
3.157  485.64  347.55  326.54  337.04  347.55  347.55  446.81 0.724E+05
3.383  469.93  345.27  326.43  335.85  345.27  345.27  443.80 0.649E+05
3.608  455.80  343.24  326.33  334.78  343.24  343.24  441.08 0.582E+05
3.834  443.08  341.41  326.24  333.83  341.41  341.41  438.61 0.522E+05
4.059  431.62  339.78  326.14  332.96  339.78  339.78  436.36 0.469E+05
4.285  421.30  338.32  326.05  332.18  338.32  338.32  434.32 0.422E+05
4.510  411.99  337.00  325.96  331.48  337.00  337.00  432.46 0.379E+05
  TRANSFERRED HEAT:    79114.329859115591       KCAL
  AVERAGE WALL TEMPERATURE    355.15910741210780
  FOULING FACTOR INSIDE   =    0.0000000000000000
  FOULING FACTOR, OUTSIDE =    0.0000000000000000
