  ******  INPUT PARAMETERS   ******

 TUBE OD                 =    3.8100000000000002E-002
 TUBE ID                 =    2.8960000000000000E-002
 TUBE CONDUCTIVITY       =    31.000000000000000
 NUMBER OF TUBES         =          1333
 FLOW PER TUBE           =    15.176789497374344
 MOLECULAR WEIGHT        =    12.941300000000000
 VISCOSITY (Kg/m hr)     =   0.16308000000000000
 GAS DESNITY             =    4.3155999999999999
 Temperature dependent input summary
 Position     Temperature       Cp     H(tube)    H(shell)
  Inlet        1050.00      8.7420      561.06   110931.74
  Outlet        475.00      7.7483      446.72    36996.50
 FLOW SPEED AND REYNOLDS NUMBER AT INLET:   19.192255126823035        52950.193083558370
 FOULING FACTOR INSIDE   =    0.0000000000000000
 FOULING FACTOR, OUTSIDE =    0.0000000000000000
 NO LINER
 NO GAP BETWEEN LINER AND TUBE
 INCREASED HEAT TRANSFER IN INLET APPLIED

  *******  OUTPUT  ********

   X   T GAS     TTT     TTS   TMEAN     TLI     TLO   U ALL   FLUX
0.000 1050.00  405.38  331.17  368.27  405.38  405.38  609.06 0.440E+06
0.240  967.21  387.63  330.58  359.11  387.63  387.63  528.88 0.390E+06
0.480  898.15  378.84  330.35  354.59  378.84  378.84  503.83 0.302E+06
0.720  838.02  372.19  330.18  351.19  372.19  372.19  487.89 0.257E+06
0.960  785.07  366.75  330.04  348.39  366.75  366.75  475.68 0.223E+06
1.200  738.18  362.16  329.90  346.03  362.16  362.16  465.62 0.195E+06
1.440  696.51  358.23  329.78  344.01  358.23  358.23  457.05 0.172E+06
1.680  659.39  354.84  329.66  342.25  354.84  354.84  449.59 0.152E+06
1.920  626.25  351.88  329.55  340.72  351.88  351.88  443.04 0.134E+06
2.160  596.62  349.30  329.44  339.37  349.30  349.30  437.23 0.119E+06
2.400  570.09  347.02  329.33  338.18  347.02  347.02  432.06 0.106E+06
2.640  546.31  345.02  329.23  337.12  345.02  345.02  427.43 0.947E+05
2.880  524.96  343.24  329.13  336.19  343.24  343.24  423.27 0.845E+05
3.120  505.78  341.66  329.03  335.35  341.66  341.66  419.53 0.756E+05
3.360  488.53  340.25  328.94  334.59  340.25  340.25  416.15 0.677E+05
3.600  473.01  339.00  328.84  333.92  339.00  339.00  413.10 0.607E+05
3.840  459.03  337.87  328.75  333.31  337.87  337.87  410.34 0.545E+05
4.080  446.44  336.86  328.66  332.76  336.86  336.86  407.84 0.489E+05
4.320  435.08  335.95  328.58  332.26  335.95  335.95  405.57 0.440E+05
4.560  424.83  335.13  328.49  331.81  335.13  335.13  403.51 0.396E+05
4.800  415.58  334.39  328.41  331.40  334.39  334.39  401.63 0.357E+05
  TRANSFERRED HEAT:    79235.042874496954       KCAL
  AVERAGE WALL TEMPERATURE    348.57895468881105
  FOULING FACTOR INSIDE   =    0.0000000000000000
  FOULING FACTOR, OUTSIDE =    0.0000000000000000
