  ******  INPUT PARAMETERS   ******

 TUBE OD                 =    3.8100000000000002E-002
 TUBE ID                 =    2.3680000000000000E-002
 TUBE CONDUCTIVITY       =    31.000000000000000
 NUMBER OF TUBES         =          1417
 FLOW PER TUBE           =    15.169799929428372
 MOLECULAR WEIGHT        =    13.198900000000000
 VISCOSITY (Kg/m hr)     =   0.16380000000000000
 GAS DESNITY             =    3.8203000000000000
 Temperature dependent input summary
 Position     Temperature       Cp     H(tube)    H(shell)
  Inlet        1050.00      8.6899      642.17   110655.00
  Outlet        474.00      7.7099      514.86    37410.20
 FLOW SPEED AND REYNOLDS NUMBER AT INLET:   33.056983357507420        65725.059660875500
 FOULING FACTOR INSIDE   =    5.0000000000000001E-004
 FOULING FACTOR, OUTSIDE =    1.0000000000000000E-004
 NO LINER
 NO GAP BETWEEN LINER AND TUBE
 INCREASED HEAT TRANSFER IN INLET APPLIED

  *******  OUTPUT  ********

   X   T GAS     TTT     TTS   TMEAN     TLI     TLO   U ALL   FLUX
0.000 1050.00  439.82  355.97  397.89  439.82  439.82  395.55 0.287E+06
0.226  995.51  424.50  351.92  388.21  424.50  424.50  370.21 0.265E+06
0.451  946.39  415.23  349.49  382.36  415.23  415.23  361.84 0.230E+06
0.677  901.26  407.52  347.47  377.50  407.52  407.52  356.37 0.209E+06
0.902  859.60  400.73  345.69  373.21  400.73  400.73  352.03 0.191E+06
1.128  821.06  394.62  344.10  369.36  394.62  394.62  348.31 0.175E+06
1.353  785.39  389.10  342.64  365.87  389.10  389.10  345.00 0.160E+06
1.578  752.35  384.07  341.32  362.69  384.07  384.07  342.01 0.148E+06
1.804  721.72  379.48  340.11  359.79  379.48  379.48  339.26 0.136E+06
2.029  693.34  375.28  339.00  357.14  375.28  375.28  336.73 0.125E+06
2.255  667.02  371.44  337.98  354.71  371.44  371.44  334.39 0.115E+06
2.481  642.61  367.91  337.04  352.48  367.91  367.91  332.21 0.106E+06
2.706  619.97  364.67  336.18  350.43  364.67  364.67  330.18 0.981E+05
2.932  598.97  361.70  335.38  348.54  361.70  361.70  328.29 0.906E+05
3.157  579.49  358.96  334.64  346.80  358.96  358.96  326.53 0.837E+05
3.383  561.41  356.44  333.96  345.20  356.44  356.44  324.88 0.773E+05
3.608  544.63  354.12  333.33  343.72  354.12  354.12  323.34 0.715E+05
3.834  529.06  351.97  332.75  342.36  351.97  351.97  321.91 0.661E+05
4.059  514.60  350.00  332.20  341.10  350.00  350.00  320.56 0.611E+05
4.285  501.18  348.17  331.70  339.94  348.17  348.17  319.30 0.566E+05
4.510  488.72  346.48  331.23  338.86  346.48  346.48  318.13 0.524E+05
  TRANSFERRED HEAT:    70032.977578034974       KCAL
  AVERAGE WALL TEMPERATURE    365.58727820368466
  FOULING FACTOR INSIDE   =    5.0000000000000001E-004
  FOULING FACTOR, OUTSIDE =    1.0000000000000000E-004
