$ WALL TEMPERATURE PROFILE 
! SHELL FOUL= 0.0000 TUBE FOUL= 0.0000
   0.0000000000000000        459.27745772743310        328.72311405959806     
  0.22550000000000001        432.16487435487318        328.23079401321439     
  0.45100000000000007        417.13798063169116        328.01653023267568     
  0.67650000000000021        405.42982301292966        327.85059895034021     
  0.90200000000000036        395.70528667029788        327.70411936517502     
   1.1275000000000002        387.43634538498196        327.56842670679515     
   1.3529999999999998        380.31930899325170        327.43979040312473     
   1.5784999999999993        374.14608079628795        327.31624248254701     
   1.8039999999999989        368.76108790168126        327.19661676662849     
   2.0294999999999987        364.04244914853371        327.08018250358145     
   2.2549999999999994        359.89201752255349        326.96647923600034     
   2.4805000000000001        356.22935243759810        326.85523123401254     
   2.7060000000000008        352.98771085294345        326.74629711021464     
   2.9315000000000015        350.11120359607446        326.63963638243678     
   3.1570000000000022        347.55268714877650        326.53528482705002     
   3.3825000000000029        345.27215187524138        326.43333476817895     
   3.6080000000000036        343.23546239568759        326.33391844168472     
   3.8335000000000043        341.41335706481823        326.23719355370679     
   4.0590000000000046        339.78064337295791        326.14333065138777     
   4.2845000000000031        338.31554459985182        326.05250217205128     
   4.5100000000000016        336.99916513394669        325.96487314835554     
