$ WALL TEMPERATURE PROFILE 
! SHELL FOUL= 0.0001 TUBE FOUL= 0.0000
   0.0000000000000000        493.54889328449849        370.56880733585285     
  0.22550000000000001        461.26432044276021        362.01371701163617     
  0.45100000000000007        443.09035861948081        357.23887904090788     
  0.67650000000000021        428.77550138082864        353.47941038644706     
  0.90200000000000036        416.77493357334009        350.32243482946694     
   1.1275000000000002        406.48598099437959        347.60863935960293     
   1.3529999999999998        397.56399518873127        345.24774545491726     
   1.5784999999999993        389.77241982863922        343.17818439223697     
   1.8039999999999989        382.93334492080049        341.35385682307430     
   2.0294999999999987        376.90626348171804        339.73847643425614     
   2.2549999999999994        371.57702207951365        338.30264574569293     
   2.4805000000000001        366.85121129523657        337.02211643602863     
   2.7060000000000008        362.64979726367790        335.87664419580301     
   2.9315000000000015        358.90602667272674        334.84917933038957     
   3.1570000000000022        355.56312637150222        333.92526561317101     
   3.3825000000000029        352.57253577178597        333.09257806344073     
   3.6080000000000036        349.89251631670390        332.34055868649273     
   3.8335000000000043        347.48703871374039        331.66012424842052     
   4.0590000000000046        345.32488095422650        331.04342873464208     
   4.2845000000000031        343.37888989867730        330.48366835272458     
   4.5100000000000016        341.62537196664778        329.97492027931452     
