$ WALL TEMPERATURE PROFILE 
! SHELL FOUL= 0.0000 TUBE FOUL= 0.0005
   0.0000000000000000        342.92127705108624     
  0.29999999999999999        340.84317296346654     
  0.60000000000000009        339.63249832657328     
  0.90000000000000036        338.60406951046400     
   1.2000000000000006        337.68397364194755     
   1.5000000000000009        336.84815566077651     
   1.8000000000000012        336.08418997634084     
   2.1000000000000014        335.38377524879439     
   2.4000000000000017        334.74052069432838     
   2.7000000000000020        334.14911639315454     
   3.0000000000000022        333.60496536067012     
   3.3000000000000025        333.10399709505657     
   3.6000000000000028        332.64256148674809     
   3.9000000000000030        332.21736175410797     
   4.2000000000000020        331.82540782233815     
   4.5000000000000000        331.46398115201555     
   4.7999999999999980        331.13060640777115     
   5.0999999999999961        330.82302749873423     
   5.3999999999999941        330.53918662533442     
   5.6999999999999922        330.27720555933297     
   5.9999999999999902        330.03536871131854     
